Data from Cr-1ng_USB2E8911_005.txt Node
Date: Tue May 14 14:49:21 PDT 2019
User: admin
Spectrometer: USB2E891
Trigger mode: 1
Integration Time (sec): 1.000000E-1
Scans to average: 1
Electric dark correction enabled: true
Nonlinearity correction enabled: false
Boxcar width: 0
XAxis mode: Wavelengths
Number of Pixels in Spectrum: 2048
>>>>>Begin Spectral Data<<<<<
183.106	-229.78
183.502	10.22
183.898	8.22
184.293	11.22
184.689	5.22
185.085	11.22
185.48	21.22
185.876	20.22
186.271	14.22
186.667	12.22
187.062	16.22
187.457	11.22
187.853	14.22
188.248	16.22
188.643	13.22
189.039	13.22
189.434	15.22
189.829	16.22
190.224	14.22
190.619	15.22
191.014	13.22
191.409	18.22
191.805	13.22
192.199	19.22
192.594	20.22
192.989	12.22
193.384	13.22
193.779	15.22
194.174	19.22
194.569	14.22
194.964	21.22
195.358	18.22
195.753	18.22
196.148	22.22
196.542	18.22
196.937	18.22
197.331	21.22
197.726	20.22
198.12	14.22
198.515	27.22
198.909	17.22
199.304	22.22
199.698	16.22
200.092	13.22
200.487	18.22
200.881	22.22
201.275	18.22
201.669	18.22
202.063	18.22
202.458	21.22
202.852	25.22
203.246	20.22
203.64	23.22
204.034	22.22
204.428	21.22
204.822	26.22
205.216	18.22
205.609	20.22
206.003	24.22
206.397	19.22
206.791	28.22
207.184	26.22
207.578	21.22
207.972	23.22
208.365	21.22
208.759	25.22
209.153	27.22
209.546	18.22
209.94	25.22
210.333	16.22
210.726	21.22
211.12	24.22
211.513	22.22
211.906	21.22
212.3	26.22
212.693	21.22
213.086	18.22
213.479	16.22
213.873	22.22
214.266	19.22
214.659	24.22
215.052	22.22
215.445	17.22
215.838	18.22
216.231	21.22
216.624	24.22
217.016	24.22
217.409	28.22
217.802	24.22
218.195	23.22
218.588	26.22
218.98	27.22
219.373	22.22
219.766	27.22
220.158	21.22
220.551	26.22
220.943	17.22
221.336	26.22
221.728	24.22
222.121	26.22
222.513	34.22
222.906	25.22
223.298	19.22
223.69	29.22
224.082	25.22
224.475	26.22
224.867	36.22
225.259	25.22
225.651	30.22
226.043	22.22
226.435	21.22
226.827	34.22
227.219	20.22
227.611	29.22
228.003	26.22
228.395	27.22
228.787	30.22
229.179	24.22
229.57	25.22
229.962	27.22
230.354	37.22
230.746	28.22
231.137	30.22
231.529	31.22
231.92	34.22
232.312	32.22
232.703	35.22
233.095	32.22
233.486	30.22
233.878	29.22
234.269	27.22
234.66	31.22
235.052	29.22
235.443	38.22
235.834	28.22
236.225	34.22
236.616	41.22
237.008	30.22
237.399	34.22
237.79	37.22
238.181	33.22
238.572	33.22
238.963	38.22
239.354	46.22
239.744	50.22
240.135	45.22
240.526	44.22
240.917	38.22
241.308	35.22
241.698	34.22
242.089	44.22
242.48	43.22
242.87	40.22
243.261	47.22
243.651	53.22
244.042	56.22
244.432	47.22
244.823	52.22
245.213	66.22
245.603	70.22
245.994	65.22
246.384	56.22
246.774	64.22
247.164	56.22
247.555	63.22
247.945	79.22
248.335	85.22
248.725	88.22
249.115	72.22
249.505	74.22
249.895	62.22
250.285	51.22
250.675	53.22
251.065	59.22
251.454	55.22
251.844	63.22
252.234	78.22
252.624	70.22
253.013	59.22
253.403	53.22
253.793	57.22
254.182	58.22
254.572	81.22
254.961	99.22
255.351	114.22
255.74	92.22
256.13	72.22
256.519	65.22
256.908	83.22
257.298	87.22
257.687	79.22
258.076	88.22
258.465	76.22
258.854	69.22
259.243	59.22
259.633	69.22
260.022	82.22
260.411	98.22
260.8	104.22
261.188	112.22
261.577	93.22
261.966	82.22
262.355	76.22
262.744	80.22
263.133	86.22
263.521	91.22
263.91	71.22
264.299	81.22
264.687	89.22
265.076	105.22
265.464	130.22
265.853	141.22
266.241	121.22
266.63	89.22
267.018	100.22
267.407	98.22
267.795	110.22
268.183	105.22
268.571	94.22
268.96	70.22
269.348	99.22
269.736	128.22
270.124	130.22
270.512	111.22
270.9	106.22
271.288	114.22
271.676	153.22
272.064	169.22
272.452	146.22
272.84	103.22
273.228	61.22
273.616	58.22
274.003	66.22
274.391	72.22
274.779	76.22
275.166	75.22
275.554	71.22
275.941	112.22
276.329	133.22
276.717	154.22
277.104	155.22
277.491	126.22
277.879	104.22
278.266	84.22
278.653	82.22
279.041	110.22
279.428	128.22
279.815	121.22
280.202	107.22
280.589	100.22
280.977	73.22
281.364	72.22
281.751	86.22
282.138	94.22
282.525	114.22
282.912	160.22
283.298	166.22
283.685	136.22
284.072	116.22
284.459	127.22
284.846	129.22
285.232	139.22
285.619	113.22
286.006	111.22
286.392	123.22
286.779	110.22
287.165	111.22
287.552	146.22
287.938	160.22
288.325	128.22
288.711	90.22
289.097	105.22
289.484	151.22
289.87	122.22
290.256	94.22
290.642	86.22
291.028	103.22
291.414	107.22
291.801	96.22
292.187	100.22
292.573	92.22
292.959	100.22
293.344	136.22
293.73	167.22
294.116	232.22
294.502	280.22
294.888	202.22
295.274	103.22
295.659	78.22
296.045	82.22
296.431	94.22
296.816	94.22
297.202	97.22
297.587	113.22
297.973	129.22
298.358	104.22
298.744	94.22
299.129	123.22
299.514	113.22
299.9	107.22
300.285	79.22
300.67	95.22
301.055	130.22
301.44	166.22
301.825	159.22
302.211	167.22
302.596	130.22
302.981	100.22
303.366	91.22
303.75	111.22
304.135	148.22
304.52	187.22
304.905	177.22
305.29	120.22
305.675	74.22
306.059	67.22
306.444	80.22
306.829	84.22
307.213	84.22
307.598	98.22
307.982	85.22
308.367	85.22
308.751	95.22
309.135	98.22
309.52	88.22
309.904	83.22
310.288	87.22
310.673	86.22
311.057	90.22
311.441	89.22
311.825	90.22
312.209	88.22
312.593	80.22
312.977	79.22
313.361	80.22
313.745	91.22
314.129	83.22
314.513	95.22
314.897	82.22
315.281	83.22
315.665	90.22
316.048	99.22
316.432	108.22
316.816	102.22
317.199	100.22
317.583	133.22
317.966	133.22
318.35	114.22
318.733	117.22
319.117	96.22
319.5	123.22
319.884	135.22
320.267	144.22
320.65	182.22
321.033	189.22
321.417	210.22
321.8	184.22
322.183	121.22
322.566	89.22
322.949	106.22
323.332	120.22
323.715	121.22
324.098	155.22
324.481	211.22
324.864	210.22
325.246	162.22
325.629	106.22
326.012	110.22
326.395	123.22
326.777	140.22
327.16	166.22
327.543	140.22
327.925	122.22
328.308	89.22
328.69	101.22
329.073	99.22
329.455	124.22
329.837	170.22
330.22	148.22
330.602	139.22
330.984	121.22
331.366	154.22
331.748	104.22
332.131	117.22
332.513	140.22
332.895	144.22
333.277	139.22
333.659	135.22
334.041	149.22
334.423	148.22
334.804	115.22
335.186	94.22
335.568	93.22
335.95	107.22
336.332	99.22
336.713	115.22
337.095	136.22
337.476	148.22
337.858	136.22
338.239	109.22
338.621	98.22
339.002	82.22
339.384	85.22
339.765	97.22
340.146	97.22
340.528	103.22
340.909	125.22
341.29	125.22
341.671	112.22
342.053	103.22
342.434	93.22
342.815	96.22
343.196	98.22
343.577	95.22
343.958	92.22
344.338	111.22
344.719	107.22
345.1	108.22
345.481	91.22
345.862	104.22
346.242	96.22
346.623	91.22
347.004	79.22
347.384	83.22
347.765	92.22
348.145	97.22
348.526	99.22
348.906	112.22
349.287	121.22
349.667	114.22
350.047	98.22
350.428	98.22
350.808	107.22
351.188	104.22
351.568	91.22
351.948	99.22
352.328	102.22
352.708	102.22
353.088	109.22
353.468	115.22
353.848	126.22
354.228	147.22
354.608	147.22
354.988	124.22
355.368	103.22
355.747	98.22
356.127	101.22
356.507	125.22
356.886	145.22
357.266	166.22
357.645	132.22
358.025	114.22
358.404	111.22
358.784	121.22
359.163	130.22
359.542	118.22
359.922	103.22
360.301	119.22
360.68	122.22
361.059	199.22
361.439	283.22
361.818	282.22
362.197	197.22
362.576	145.22
362.955	122.22
363.334	124.22
363.713	132.22
364.091	138.22
364.47	134.22
364.849	113.22
365.228	107.22
365.606	119.22
365.985	113.22
366.364	90.22
366.742	92.22
367.121	103.22
367.499	116.22
367.878	144.22
368.256	164.22
368.635	152.22
369.013	126.22
369.391	100.22
369.77	102.22
370.148	134.22
370.526	173.22
370.904	174.22
371.282	141.22
371.66	121.22
372.038	106.22
372.416	91.22
372.794	98.22
373.172	96.22
373.55	103.22
373.928	106.22
374.306	102.22
374.683	98.22
375.061	127.22
375.439	193.22
375.816	229.22
376.194	232.22
376.572	239.22
376.949	233.22
377.327	227.22
377.704	240.22
378.081	215.22
378.459	203.22
378.836	173.22
379.213	184.22
379.591	182.22
379.968	162.22
380.345	174.22
380.722	197.22
381.099	239.22
381.476	258.22
381.853	269.22
382.23	237.22
382.607	219.22
382.984	261.22
383.361	318.22
383.738	341.22
384.114	317.22
384.491	317.22
384.868	301.22
385.244	278.22
385.621	264.22
385.997	298.22
386.374	388.22
386.75	460.22
387.127	417.22
387.503	351.22
387.88	331.22
388.256	286.22
388.632	215.22
389.008	147.22
389.385	124.22
389.761	108.22
390.137	109.22
390.513	112.22
390.889	98.22
391.265	97.22
391.641	109.22
392.017	114.22
392.393	155.22
392.768	225.22
393.144	318.22
393.52	324.22
393.896	231.22
394.271	186.22
394.647	175.22
395.022	196.22
395.398	177.22
395.773	157.22
396.149	190.22
396.524	236.22
396.9	237.22
397.275	192.22
397.65	182.22
398.026	195.22
398.401	170.22
398.776	168.22
399.151	174.22
399.526	176.22
399.901	213.22
400.276	376.22
400.651	636.22
401.026	734.22
401.401	620.22
401.776	384.22
402.151	247.22
402.525	153.22
402.9	143.22
403.275	155.22
403.649	181.22
404.024	221.22
404.399	250.22
404.773	241.22
405.148	170.22
405.522	129.22
405.896	138.22
406.271	210.22
406.645	360.22
407.019	582.22
407.393	662.22
407.768	548.22
408.142	334.22
408.516	242.22
408.89	171.22
409.264	147.22
409.638	202.22
410.012	246.22
410.386	255.22
410.76	203.22
411.133	189.22
411.507	161.22
411.881	182.22
412.255	171.22
412.628	164.22
413.002	146.22
413.375	202.22
413.749	194.22
414.122	180.22
414.496	172.22
414.869	141.22
415.243	130.22
415.616	124.22
415.989	123.22
416.363	116.22
416.736	175.22
417.109	171.22
417.482	150.22
417.855	138.22
418.228	138.22
418.601	107.22
418.974	97.22
419.347	98.22
419.72	120.22
420.093	119.22
420.465	127.22
420.838	124.22
421.211	120.22
421.583	124.22
421.956	147.22
422.329	174.22
422.701	168.22
423.074	158.22
423.446	152.22
423.818	161.22
424.191	183.22
424.563	196.22
424.935	141.22
425.308	142.22
425.68	167.22
426.052	196.22
426.424	245.22
426.796	309.22
427.168	317.22
427.54	252.22
427.912	226.22
428.284	191.22
428.656	260.22
429.028	495.22
429.399	643.22
429.771	657.22
430.143	565.22
430.514	438.22
430.886	280.22
431.258	192.22
431.629	128.22
432.001	110.22
432.372	108.22
432.743	130.22
433.115	120.22
433.486	121.22
433.857	102.22
434.229	122.22
434.6	126.22
434.971	133.22
435.342	114.22
435.713	115.22
436.084	120.22
436.455	123.22
436.826	115.22
437.197	115.22
437.568	105.22
437.939	105.22
438.309	106.22
438.68	107.22
439.051	105.22
439.421	99.22
439.792	90.22
440.163	108.22
440.533	120.22
440.903	120.22
441.274	110.22
441.644	116.22
442.015	122.22
442.385	122.22
442.755	136.22
443.125	122.22
443.496	119.22
443.866	118.22
444.236	111.22
444.606	108.22
444.976	93.22
445.346	118.22
445.716	110.22
446.085	115.22
446.455	113.22
446.825	106.22
447.195	94.22
447.565	96.22
447.934	127.22
448.304	135.22
448.673	126.22
449.043	106.22
449.412	114.22
449.782	91.22
450.151	101.22
450.521	91.22
450.89	98.22
451.259	101.22
451.628	87.22
451.998	84.22
452.367	89.22
452.736	85.22
453.105	77.22
453.474	91.22
453.843	98.22
454.212	101.22
454.581	97.22
454.95	104.22
455.318	95.22
455.687	84.22
456.056	88.22
456.424	81.22
456.793	94.22
457.162	92.22
457.53	80.22
457.899	72.22
458.267	86.22
458.636	92.22
459.004	102.22
459.372	112.22
459.741	104.22
460.109	105.22
460.477	95.22
460.845	106.22
461.213	109.22
461.581	93.22
461.949	88.22
462.317	80.22
462.685	89.22
463.053	79.22
463.421	86.22
463.789	94.22
464.157	92.22
464.524	92.22
464.892	95.22
465.26	113.22
465.627	159.22
465.995	171.22
466.362	136.22
466.73	112.22
467.097	107.22
467.464	140.22
467.832	171.22
468.199	185.22
468.566	132.22
468.933	112.22
469.301	100.22
469.668	104.22
470.035	94.22
470.402	90.22
470.769	80.22
471.136	90.22
471.503	87.22
471.869	88.22
472.236	88.22
472.603	81.22
472.97	85.22
473.336	80.22
473.703	75.22
474.07	84.22
474.436	77.22
474.803	87.22
475.169	93.22
475.536	109.22
475.902	102.22
476.268	86.22
476.635	82.22
477.001	82.22
477.367	83.22
477.733	77.22
478.099	71.22
478.465	80.22
478.831	73.22
479.197	75.22
479.563	76.22
479.929	88.22
480.295	91.22
480.661	82.22
481.026	94.22
481.392	83.22
481.758	96.22
482.123	94.22
482.489	96.22
482.855	92.22
483.22	97.22
483.585	121.22
483.951	212.22
484.316	246.22
484.682	242.22
485.047	164.22
485.412	139.22
485.777	127.22
486.142	107.22
486.507	93.22
486.873	88.22
487.238	94.22
487.602	97.22
487.967	119.22
488.332	165.22
488.697	191.22
489.062	176.22
489.427	133.22
489.791	131.22
490.156	123.22
490.521	116.22
490.885	106.22
491.25	97.22
491.614	116.22
491.979	118.22
492.343	124.22
492.707	114.22
493.072	109.22
493.436	110.22
493.8	98.22
494.164	111.22
494.528	99.22
494.892	89.22
495.256	93.22
495.62	102.22
495.984	96.22
496.348	111.22
496.712	102.22
497.076	101.22
497.44	124.22
497.803	152.22
498.167	185.22
498.531	175.22
498.894	148.22
499.258	138.22
499.621	135.22
499.985	171.22
500.348	220.22
500.711	239.22
501.075	221.22
501.438	228.22
501.801	213.22
502.164	153.22
502.527	136.22
502.891	118.22
503.254	101.22
503.617	111.22
503.98	101.22
504.342	132.22
504.705	196.22
505.068	316.22
505.431	363.22
505.794	291.22
506.156	222.22
506.519	231.22
506.882	230.22
507.244	221.22
507.607	176.22
507.969	142.22
508.331	122.22
508.694	108.22
509.056	111.22
509.418	92.22
509.781	97.22
510.143	100.22
510.505	100.22
510.867	108.22
511.229	97.22
511.591	94.22
511.953	98.22
512.315	100.22
512.677	106.22
513.039	105.22
513.401	91.22
513.762	95.22
514.124	91.22
514.486	89.22
514.847	95.22
515.209	101.22
515.57	84.22
515.932	96.22
516.293	83.22
516.654	87.22
517.016	95.22
517.377	82.22
517.738	87.22
518.1	103.22
518.461	86.22
518.822	97.22
519.183	98.22
519.544	87.22
519.905	103.22
520.266	117.22
520.627	110.22
520.987	120.22
521.348	127.22
521.709	147.22
522.07	219.22
522.43	229.22
522.791	219.22
523.151	151.22
523.512	136.22
523.872	123.22
524.233	132.22
524.593	117.22
524.953	105.22
525.314	111.22
525.674	104.22
526.034	111.22
526.394	81.22
526.754	93.22
527.114	96.22
527.474	100.22
527.834	95.22
528.194	88.22
528.554	93.22
528.914	77.22
529.274	84.22
529.634	87.22
529.993	88.22
530.353	85.22
530.712	83.22
531.072	79.22
531.431	85.22
531.791	82.22
532.15	78.22
532.51	79.22
532.869	71.22
533.228	77.22
533.587	82.22
533.947	82.22
534.306	84.22
534.665	92.22
535.024	100.22
535.383	94.22
535.742	94.22
536.101	80.22
536.46	77.22
536.818	85.22
537.177	84.22
537.536	86.22
537.895	89.22
538.253	94.22
538.612	84.22
538.97	83.22
539.329	81.22
539.687	79.22
540.046	80.22
540.404	79.22
540.762	78.22
541.12	74.22
541.479	74.22
541.837	78.22
542.195	86.22
542.553	76.22
542.911	82.22
543.269	87.22
543.627	95.22
543.985	82.22
544.343	82.22
544.7	84.22
545.058	82.22
545.416	78.22
545.774	75.22
546.131	79.22
546.489	78.22
546.846	72.22
547.204	74.22
547.561	80.22
547.918	81.22
548.276	78.22
548.633	78.22
548.99	94.22
549.347	103.22
549.705	92.22
550.062	90.22
550.419	93.22
550.776	106.22
551.133	134.22
551.49	142.22
551.846	128.22
552.203	108.22
552.56	93.22
552.917	82.22
553.273	87.22
553.63	83.22
553.987	86.22
554.343	75.22
554.7	69.22
555.056	67.22
555.412	65.22
555.769	64.22
556.125	68.22
556.481	67.22
556.837	68.22
557.194	64.22
557.55	70.22
557.906	69.22
558.262	61.22
558.618	68.22
558.974	63.22
559.329	58.22
559.685	78.22
560.041	73.22
560.397	70.22
560.752	76.22
561.108	73.22
561.464	75.22
561.819	73.22
562.175	66.22
562.53	67.22
562.886	73.22
563.241	75.22
563.596	80.22
563.951	76.22
564.307	76.22
564.662	86.22
565.017	81.22
565.372	73.22
565.727	77.22
566.082	72.22
566.437	72.22
566.792	75.22
567.147	72.22
567.501	75.22
567.856	81.22
568.211	67.22
568.565	67.22
568.92	66.22
569.275	64.22
569.629	63.22
569.984	61.22
570.338	59.22
570.692	61.22
571.047	60.22
571.401	62.22
571.755	59.22
572.109	53.22
572.463	56.22
572.817	59.22
573.171	71.22
573.525	70.22
573.879	76.22
574.233	55.22
574.587	63.22
574.941	63.22
575.295	63.22
575.648	55.22
576.002	66.22
576.355	51.22
576.709	51.22
577.062	49.22
577.416	61.22
577.769	61.22
578.123	50.22
578.476	49.22
578.829	51.22
579.182	60.22
579.536	54.22
579.889	67.22
580.242	70.22
580.595	65.22
580.948	67.22
581.301	60.22
581.654	58.22
582.006	53.22
582.359	48.22
582.712	54.22
583.065	49.22
583.417	53.22
583.77	56.22
584.122	55.22
584.475	55.22
584.827	56.22
585.18	52.22
585.532	53.22
585.884	51.22
586.237	55.22
586.589	53.22
586.941	51.22
587.293	54.22
587.645	47.22
587.997	67.22
588.349	157.22
588.701	318.22
589.053	477.22
589.405	519.22
589.756	426.22
590.108	317.22
590.46	225.22
590.811	182.22
591.163	138.22
591.514	123.22
591.866	99.22
592.217	80.22
592.569	65.22
592.92	57.22
593.271	60.22
593.623	54.22
593.974	52.22
594.325	60.22
594.676	52.22
595.027	53.22
595.378	52.22
595.729	52.22
596.08	53.22
596.431	48.22
596.781	55.22
597.132	51.22
597.483	48.22
597.833	46.22
598.184	52.22
598.535	51.22
598.885	51.22
599.236	44.22
599.586	48.22
599.936	44.22
600.287	43.22
600.637	46.22
600.987	46.22
601.337	45.22
601.687	42.22
602.037	44.22
602.387	47.22
602.737	40.22
603.087	46.22
603.437	46.22
603.787	43.22
604.137	46.22
604.487	36.22
604.836	42.22
605.186	44.22
605.535	41.22
605.885	50.22
606.234	36.22
606.584	44.22
606.933	39.22
607.283	48.22
607.632	47.22
607.981	34.22
608.33	47.22
608.679	37.22
609.028	34.22
609.377	42.22
609.726	39.22
610.075	42.22
610.424	41.22
610.773	39.22
611.122	43.22
611.471	44.22
611.819	48.22
612.168	41.22
612.517	41.22
612.865	28.22
613.214	40.22
613.562	41.22
613.91	43.22
614.259	43.22
614.607	44.22
614.955	41.22
615.304	42.22
615.652	40.22
616	41.22
616.348	42.22
616.696	39.22
617.044	37.22
617.392	38.22
617.739	40.22
618.087	39.22
618.435	39.22
618.783	41.22
619.13	38.22
619.478	38.22
619.826	39.22
620.173	37.22
620.521	34.22
620.868	38.22
621.215	36.22
621.563	31.22
621.91	32.22
622.257	36.22
622.604	40.22
622.951	36.22
623.298	34.22
623.645	30.22
623.992	41.22
624.339	38.22
624.686	37.22
625.033	31.22
625.38	46.22
625.726	40.22
626.073	36.22
626.42	44.22
626.766	34.22
627.113	37.22
627.459	38.22
627.806	33.22
628.152	35.22
628.498	32.22
628.844	43.22
629.191	36.22
629.537	46.22
629.883	39.22
630.229	38.22
630.575	36.22
630.921	45.22
631.267	41.22
631.613	32.22
631.959	38.22
632.304	41.22
632.65	35.22
632.996	41.22
633.341	37.22
633.687	40.22
634.032	37.22
634.378	28.22
634.723	36.22
635.069	34.22
635.414	34.22
635.759	46.22
636.104	31.22
636.45	28.22
636.795	28.22
637.14	28.22
637.485	39.22
637.83	30.22
638.175	33.22
638.519	37.22
638.864	36.22
639.209	39.22
639.554	38.22
639.898	36.22
640.243	38.22
640.587	41.22
640.932	37.22
641.276	34.22
641.621	34.22
641.965	37.22
642.309	42.22
642.654	36.22
642.998	41.22
643.342	34.22
643.686	32.22
644.03	33.22
644.374	35.22
644.718	43.22
645.062	36.22
645.406	38.22
645.75	32.22
646.093	30.22
646.437	31.22
646.781	40.22
647.124	37.22
647.468	35.22
647.811	33.22
648.155	33.22
648.498	35.22
648.842	38.22
649.185	25.22
649.528	29.22
649.871	39.22
650.214	35.22
650.558	28.22
650.901	30.22
651.244	32.22
651.586	35.22
651.929	40.22
652.272	34.22
652.615	34.22
652.958	43.22
653.3	35.22
653.643	39.22
653.986	32.22
654.328	34.22
654.671	35.22
655.013	42.22
655.355	35.22
655.698	34.22
656.04	36.22
656.382	39.22
656.724	36.22
657.066	38.22
657.409	29.22
657.751	34.22
658.092	39.22
658.434	38.22
658.776	34.22
659.118	29.22
659.46	31.22
659.802	34.22
660.143	27.22
660.485	24.22
660.826	34.22
661.168	30.22
661.509	30.22
661.851	32.22
662.192	31.22
662.533	26.22
662.875	33.22
663.216	30.22
663.557	34.22
663.898	34.22
664.239	32.22
664.58	36.22
664.921	34.22
665.262	38.22
665.603	27.22
665.943	32.22
666.284	31.22
666.625	33.22
666.966	30.22
667.306	24.22
667.647	32.22
667.987	31.22
668.327	32.22
668.668	27.22
669.008	32.22
669.348	29.22
669.689	28.22
670.029	35.22
670.369	26.22
670.709	30.22
671.049	30.22
671.389	29.22
671.729	25.22
672.069	32.22
672.409	26.22
672.748	28.22
673.088	23.22
673.428	29.22
673.767	31.22
674.107	28.22
674.446	32.22
674.786	27.22
675.125	27.22
675.464	23.22
675.804	26.22
676.143	22.22
676.482	32.22
676.821	32.22
677.16	33.22
677.499	24.22
677.838	33.22
678.177	24.22
678.516	22.22
678.855	25.22
679.194	29.22
679.532	29.22
679.871	31.22
680.21	26.22
680.548	30.22
680.887	24.22
681.225	28.22
681.564	30.22
681.902	31.22
682.24	28.22
682.578	21.22
682.917	24.22
683.255	25.22
683.593	20.22
683.931	24.22
684.269	36.22
684.607	22.22
684.945	26.22
685.282	27.22
685.62	27.22
685.958	24.22
686.296	29.22
686.633	26.22
686.971	25.22
687.308	23.22
687.646	25.22
687.983	24.22
688.321	29.22
688.658	28.22
688.995	23.22
689.332	26.22
689.669	22.22
690.006	27.22
690.344	30.22
690.681	28.22
691.017	19.22
691.354	28.22
691.691	24.22
692.028	21.22
692.365	23.22
692.701	29.22
693.038	19.22
693.375	23.22
693.711	22.22
694.047	28.22
694.384	32.22
694.72	21.22
695.057	28.22
695.393	21.22
695.729	24.22
696.065	24.22
696.401	23.22
696.737	25.22
697.073	24.22
697.409	29.22
697.745	29.22
698.081	21.22
698.417	32.22
698.752	26.22
699.088	25.22
699.424	27.22
699.759	25.22
700.095	27.22
700.43	26.22
700.766	25.22
701.101	24.22
701.436	26.22
701.771	26.22
702.107	25.22
702.442	27.22
702.777	26.22
703.112	27.22
703.447	23.22
703.782	23.22
704.117	20.22
704.451	25.22
704.786	27.22
705.121	25.22
705.456	21.22
705.79	24.22
706.125	25.22
706.459	25.22
706.794	31.22
707.128	23.22
707.462	28.22
707.797	21.22
708.131	22.22
708.465	27.22
708.799	26.22
709.133	25.22
709.467	25.22
709.801	18.22
710.135	25.22
710.469	21.22
710.803	23.22
711.137	28.22
711.47	21.22
711.804	25.22
712.138	22.22
712.471	31.22
712.805	21.22
713.138	25.22
713.471	28.22
713.805	26.22
714.138	24.22
714.471	25.22
714.804	20.22
715.138	26.22
715.471	23.22
715.804	28.22
716.137	19.22
716.469	26.22
716.802	22.22
717.135	24.22
717.468	16.22
717.801	30.22
718.133	20.22
718.466	17.22
718.798	17.22
719.131	18.22
719.463	24.22
719.795	19.22
720.128	16.22
720.46	25.22
720.792	24.22
721.124	20.22
721.456	20.22
721.789	23.22
722.121	29.22
722.452	22.22
722.784	23.22
723.116	23.22
723.448	26.22
723.78	24.22
724.111	23.22
724.443	20.22
724.774	24.22
725.106	20.22
725.437	28.22
725.769	21.22
726.1	24.22
726.431	24.22
726.763	21.22
727.094	17.22
727.425	22.22
727.756	26.22
728.087	25.22
728.418	25.22
728.749	22.22
729.08	16.22
729.41	20.22
729.741	22.22
730.072	20.22
730.403	15.22
730.733	14.22
731.064	17.22
731.394	17.22
731.725	21.22
732.055	18.22
732.385	20.22
732.715	25.22
733.046	22.22
733.376	23.22
733.706	20.22
734.036	17.22
734.366	18.22
734.696	16.22
735.026	19.22
735.355	22.22
735.685	20.22
736.015	23.22
736.345	23.22
736.674	18.22
737.004	12.22
737.333	28.22
737.663	22.22
737.992	20.22
738.321	27.22
738.651	29.22
738.98	20.22
739.309	30.22
739.638	26.22
739.967	23.22
740.296	29.22
740.625	22.22
740.954	16.22
741.283	21.22
741.612	24.22
741.94	28.22
742.269	20.22
742.598	29.22
742.926	20.22
743.255	18.22
743.583	24.22
743.912	22.22
744.24	26.22
744.568	27.22
744.896	23.22
745.225	29.22
745.553	24.22
745.881	25.22
746.209	22.22
746.537	24.22
746.865	30.22
747.192	24.22
747.52	24.22
747.848	31.22
748.176	23.22
748.503	31.22
748.831	22.22
749.158	30.22
749.486	23.22
749.813	21.22
750.141	25.22
750.468	21.22
750.795	27.22
751.122	24.22
751.449	22.22
751.777	25.22
752.104	28.22
752.431	20.22
752.757	17.22
753.084	19.22
753.411	22.22
753.738	22.22
754.065	27.22
754.391	25.22
754.718	25.22
755.044	18.22
755.371	26.22
755.697	24.22
756.024	23.22
756.35	13.22
756.676	16.22
757.002	19.22
757.328	23.22
757.654	22.22
757.981	25.22
758.306	26.22
758.632	19.22
758.958	12.22
759.284	21.22
759.61	22.22
759.935	19.22
760.261	23.22
760.587	22.22
760.912	20.22
761.238	22.22
761.563	19.22
761.888	17.22
762.214	21.22
762.539	22.22
762.864	21.22
763.189	16.22
763.514	15.22
763.839	21.22
764.164	22.22
764.489	17.22
764.814	22.22
765.139	16.22
765.464	21.22
765.788	21.22
766.113	23.22
766.438	21.22
766.762	28.22
767.087	27.22
767.411	22.22
767.735	25.22
768.06	19.22
768.384	21.22
768.708	23.22
769.032	21.22
769.356	24.22
769.68	22.22
770.004	25.22
770.328	24.22
770.652	16.22
770.976	20.22
771.3	22.22
771.623	18.22
771.947	21.22
772.271	21.22
772.594	22.22
772.917	16.22
773.241	19.22
773.564	23.22
773.888	18.22
774.211	18.22
774.534	18.22
774.857	18.22
775.18	16.22
775.503	18.22
775.826	21.22
776.149	22.22
776.472	19.22
776.795	21.22
777.117	27.22
777.44	27.22
777.763	25.22
778.085	21.22
778.408	19.22
778.73	14.22
779.053	22.22
779.375	18.22
779.697	21.22
780.019	22.22
780.342	20.22
780.664	20.22
780.986	20.22
781.308	26.22
781.63	16.22
781.952	20.22
782.273	24.22
782.595	23.22
782.917	15.22
783.238	23.22
783.56	19.22
783.882	17.22
784.203	16.22
784.525	16.22
784.846	13.22
785.167	26.22
785.488	21.22
785.81	14.22
786.131	18.22
786.452	17.22
786.773	16.22
787.094	18.22
787.415	18.22
787.736	19.22
788.057	19.22
788.377	23.22
788.698	20.22
789.019	18.22
789.339	22.22
789.66	18.22
789.98	22.22
790.301	20.22
790.621	16.22
790.941	25.22
791.261	19.22
791.582	17.22
791.902	22.22
792.222	17.22
792.542	23.22
792.862	25.22
793.182	17.22
793.502	13.22
793.821	17.22
794.141	22.22
794.461	17.22
794.78	19.22
795.1	24.22
795.419	16.22
795.739	29.22
796.058	12.22
796.378	18.22
796.697	16.22
797.016	19.22
797.335	18.22
797.654	22.22
797.973	15.22
798.292	22.22
798.611	22.22
798.93	23.22
799.249	18.22
799.568	17.22
799.886	26.22
800.205	14.22
800.524	17.22
800.842	26.22
801.161	17.22
801.479	22.22
801.797	16.22
802.116	22.22
802.434	19.22
802.752	21.22
803.07	21.22
803.388	21.22
803.706	13.22
804.024	26.22
804.342	23.22
804.66	22.22
804.978	16.22
805.295	18.22
805.613	18.22
805.931	16.22
806.248	20.22
806.566	23.22
806.883	17.22
807.201	18.22
807.518	14.22
807.835	14.22
808.152	21.22
808.469	17.22
808.787	19.22
809.104	16.22
809.421	16.22
809.737	19.22
810.054	27.22
810.371	20.22
810.688	18.22
811.005	19.22
811.321	13.22
811.638	19.22
811.954	19.22
812.271	18.22
812.587	25.22
812.903	17.22
813.22	15.22
813.536	25.22
813.852	19.22
814.168	22.22
814.484	24.22
814.8	15.22
815.116	22.22
815.432	23.22
815.748	21.22
816.064	21.22
816.379	16.22
816.695	19.22
817.01	20.22
817.326	23.22
817.641	17.22
817.957	23.22
818.272	14.22
818.588	13.22
818.903	16.22
819.218	14.22
819.533	13.22
819.848	15.22
820.163	16.22
820.478	19.22
820.793	21.22
821.108	17.22
821.422	10.22
821.737	19.22
822.052	18.22
822.366	22.22
822.681	15.22
822.995	20.22
823.31	16.22
823.624	15.22
823.939	21.22
824.253	19.22
824.567	22.22
824.881	13.22
825.195	15.22
825.509	20.22
825.823	19.22
826.137	20.22
826.451	18.22
826.765	19.22
827.078	17.22
827.392	17.22
827.706	17.22
828.019	20.22
828.333	23.22
828.646	12.22
828.959	23.22
829.273	20.22
829.586	13.22
829.899	17.22
830.212	16.22
830.525	17.22
830.838	17.22
831.151	20.22
831.464	16.22
831.777	20.22
832.09	18.22
832.403	13.22
832.715	13.22
833.028	17.22
833.34	22.22
833.653	18.22
833.965	17.22
834.278	13.22
834.59	15.22
834.902	19.22
835.214	23.22
835.526	21.22
835.839	18.22
836.151	20.22
836.462	23.22
836.774	16.22
837.086	24.22
837.398	18.22
837.71	15.22
838.021	19.22
838.333	15.22
838.644	19.22
838.956	23.22
839.267	20.22
839.579	12.22
839.89	21.22
840.201	20.22
840.512	15.22
840.824	15.22
841.135	20.22
841.446	21.22
841.757	11.22
842.068	17.22
842.378	17.22
842.689	19.22
843	20.22
843.31	26.22
843.621	17.22
843.932	17.22
844.242	15.22
844.553	16.22
844.863	15.22
845.173	19.22
845.483	19.22
845.794	15.22
846.104	18.22
846.414	11.22
846.724	18.22
847.034	24.22
847.344	21.22
847.653	26.22
847.963	17.22
848.273	15.22
848.582	15.22
848.892	24.22
849.202	19.22
849.511	16.22
849.82	22.22
850.13	11.22
850.439	22.22
850.748	18.22
851.057	11.22
851.367	20.22
851.676	16.22
851.985	18.22
852.294	18.22
852.602	19.22
852.911	22.22
853.22	15.22
853.529	16.22
853.837	20.22
854.146	20.22
854.454	15.22
854.763	18.22
855.071	21.22
855.38	24.22
855.688	23.22
855.996	16.22
856.304	18.22
856.612	22.22
856.92	15.22
857.228	21.22
857.536	18.22
857.844	19.22
858.152	19.22
858.46	23.22
858.767	20.22
859.075	17.22
859.382	19.22
859.69	20.22
859.997	21.22
860.305	21.22
860.612	18.22
860.919	23.22
861.226	21.22
861.534	15.22
861.841	18.22
862.148	17.22
862.455	16.22
862.761	13.22
863.068	18.22
863.375	17.22
863.682	18.22
863.988	13.22
864.295	15.22
864.602	16.22
864.908	19.22
865.214	15.22
865.521	18.22
865.827	16.22
866.133	20.22
866.439	12.22
866.746	24.22
867.052	19.22
867.358	21.22
867.663	17.22
867.969	25.22
868.275	21.22
868.581	18.22
868.887	16.22
869.192	16.22
869.498	21.22
869.803	20.22
870.109	19.22
870.414	12.22
870.719	21.22
871.025	21.22
871.33	16.22
871.635	18.22
871.94	22.22
872.245	22.22
872.55	20.22
872.855	14.22
873.16	20.22
873.465	22.22
873.769	20.22
874.074	21.22
874.378	13.22
874.683	18.22
874.987	16.22
875.292	14.22
875.596	16.22
875.901	21.22
876.205	19.22
876.509	18.22
876.813	14.22
877.117	20.22
877.421	22.22
877.725	14.22
878.029	15.22
878.333	18.22
878.636	20.22
878.94	12.22
879.244	21.22
879.547	17.22
879.851	18.22
880.154	18.22
880.458	16.22
880.761	20.22
881.064	15.22
881.367	15.22
881.67	11.22
881.973	15.22
882.276	17.22
882.579	11.22
882.882	16.22
883.185	14.22
883.488	20.22
883.791	20.22
884.093	11.22
884.396	16.22
884.698	20.22
885.001	19.22
885.303	19.22
885.606	19.22
885.908	19.22
886.21	17.22
886.512	18.22
886.814	19.22
887.116	16.22
887.418	20.22
887.72	19.22
888.022	17.22
888.324	21.22
888.626	12.22
888.927	23.22
889.229	15.22
889.53	19.22
889.832	21.22
890.133	18.22
890.435	23.22
890.736	22.22
891.037	23.22
891.338	16.22
891.639	17.22
891.94	11.22
892.241	23.22
892.542	20.22
892.843	17.22
893.144	15.22
893.445	16.22
893.745	18.22
894.046	12.22
894.347	16.22
894.647	21.22
894.947	17.22
895.248	14.22
895.548	21.22
895.848	17.22
896.149	13.22
896.449	14.22
896.749	18.22
897.049	20.22
897.349	17.22
897.649	20.22
897.948	21.22
898.248	23.22
898.548	23.22
898.847	17.22
899.147	20.22
899.446	17.22
899.746	18.22
900.045	15.22
900.345	16.22
900.644	15.22
900.943	19.22
901.242	20.22
901.541	15.22
901.84	20.22
902.139	16.22
902.438	20.22
902.737	20.22
903.036	13.22
903.334	18.22
903.633	17.22
903.932	16.22
