Data from Cr-100ng_USB2E8911_001.txt Node
Date: Tue May 14 16:32:40 PDT 2019
User: admin
Spectrometer: USB2E891
Trigger mode: 1
Integration Time (sec): 1.000000E-1
Scans to average: 1
Electric dark correction enabled: true
Nonlinearity correction enabled: false
Boxcar width: 0
XAxis mode: Wavelengths
Number of Pixels in Spectrum: 2048
>>>>>Begin Spectral Data<<<<<
183.106	-230.39
183.502	4.61
183.898	3.61
184.293	5.61
184.689	10.61
185.085	17.61
185.48	9.61
185.876	8.61
186.271	20.61
186.667	14.61
187.062	14.61
187.457	17.61
187.853	17.61
188.248	12.61
188.643	17.61
189.039	18.61
189.434	15.61
189.829	20.61
190.224	18.61
190.619	18.61
191.014	16.61
191.409	16.61
191.805	20.61
192.199	15.61
192.594	13.61
192.989	22.61
193.384	12.61
193.779	17.61
194.174	20.61
194.569	17.61
194.964	29.61
195.358	20.61
195.753	20.61
196.148	21.61
196.542	20.61
196.937	20.61
197.331	25.61
197.726	17.61
198.12	20.61
198.515	23.61
198.909	37.61
199.304	27.61
199.698	22.61
200.092	27.61
200.487	25.61
200.881	23.61
201.275	20.61
201.669	30.61
202.063	26.61
202.458	29.61
202.852	28.61
203.246	24.61
203.64	28.61
204.034	21.61
204.428	23.61
204.822	26.61
205.216	27.61
205.609	30.61
206.003	20.61
206.397	29.61
206.791	22.61
207.184	31.61
207.578	30.61
207.972	28.61
208.365	25.61
208.759	27.61
209.153	18.61
209.546	26.61
209.94	31.61
210.333	30.61
210.726	34.61
211.12	25.61
211.513	25.61
211.906	30.61
212.3	27.61
212.693	27.61
213.086	25.61
213.479	26.61
213.873	23.61
214.266	35.61
214.659	31.61
215.052	31.61
215.445	30.61
215.838	38.61
216.231	37.61
216.624	37.61
217.016	39.61
217.409	32.61
217.802	35.61
218.195	42.61
218.588	38.61
218.98	34.61
219.373	48.61
219.766	43.61
220.158	35.61
220.551	36.61
220.943	44.61
221.336	38.61
221.728	37.61
222.121	51.61
222.513	46.61
222.906	38.61
223.298	47.61
223.69	37.61
224.082	32.61
224.475	45.61
224.867	59.61
225.259	52.61
225.651	50.61
226.043	46.61
226.435	51.61
226.827	56.61
227.219	48.61
227.611	50.61
228.003	50.61
228.395	47.61
228.787	55.61
229.179	59.61
229.57	59.61
229.962	61.61
230.354	60.61
230.746	64.61
231.137	59.61
231.529	60.61
231.92	69.61
232.312	66.61
232.703	85.61
233.095	74.61
233.486	67.61
233.878	65.61
234.269	64.61
234.66	67.61
235.052	57.61
235.443	70.61
235.834	72.61
236.225	71.61
236.616	75.61
237.008	83.61
237.399	86.61
237.79	83.61
238.181	82.61
238.572	83.61
238.963	98.61
239.354	109.61
239.744	122.61
240.135	121.61
240.526	106.61
240.917	91.61
241.308	95.61
241.698	103.61
242.089	110.61
242.48	110.61
242.87	136.61
243.261	124.61
243.651	135.61
244.042	121.61
244.432	130.61
244.823	134.61
245.213	153.61
245.603	160.61
245.994	164.61
246.384	153.61
246.774	155.61
247.164	144.61
247.555	152.61
247.945	197.61
248.335	214.61
248.725	232.61
249.115	205.61
249.505	187.61
249.895	170.61
250.285	167.61
250.675	182.61
251.065	184.61
251.454	176.61
251.844	228.61
252.234	236.61
252.624	223.61
253.013	187.61
253.403	179.61
253.793	167.61
254.182	177.61
254.572	234.61
254.961	293.61
255.351	317.61
255.74	266.61
256.13	233.61
256.519	238.61
256.908	250.61
257.298	259.61
257.687	260.61
258.076	272.61
258.465	258.61
258.854	219.61
259.243	204.61
259.633	220.61
260.022	269.61
260.411	336.61
260.8	340.61
261.188	310.61
261.577	284.61
261.966	271.61
262.355	276.61
262.744	271.61
263.133	275.61
263.521	266.61
263.91	249.61
264.299	275.61
264.687	294.61
265.076	330.61
265.464	392.61
265.853	410.61
266.241	384.61
266.63	335.61
267.018	331.61
267.407	333.61
267.795	349.61
268.183	351.61
268.571	277.61
268.96	251.61
269.348	315.61
269.736	405.61
270.124	433.61
270.512	422.61
270.9	369.61
271.288	389.61
271.676	497.61
272.064	556.61
272.452	456.61
272.84	336.61
273.228	208.61
273.616	198.61
274.003	213.61
274.391	271.61
274.779	291.61
275.166	273.61
275.554	256.61
275.941	329.61
276.329	404.61
276.717	457.61
277.104	471.61
277.491	444.61
277.879	367.61
278.266	286.61
278.653	315.61
279.041	366.61
279.428	415.61
279.815	392.61
280.202	414.61
280.589	324.61
280.977	269.61
281.364	247.61
281.751	296.61
282.138	347.61
282.525	368.61
282.912	504.61
283.298	557.61
283.685	478.61
284.072	426.61
284.459	435.61
284.846	450.61
285.232	450.61
285.619	441.61
286.006	422.61
286.392	414.61
286.779	396.61
287.165	385.61
287.552	512.61
287.938	516.61
288.325	454.61
288.711	304.61
289.097	338.61
289.484	426.61
289.87	375.61
290.256	326.61
290.642	336.61
291.028	396.61
291.414	412.61
291.801	372.61
292.187	414.61
292.573	367.61
292.959	400.61
293.344	459.61
293.73	556.61
294.116	652.61
294.502	740.61
294.888	580.61
295.274	379.61
295.659	287.61
296.045	309.61
296.431	363.61
296.816	398.61
297.202	392.61
297.587	475.61
297.973	472.61
298.358	410.61
298.744	378.61
299.129	476.61
299.514	498.61
299.9	416.61
300.285	345.61
300.67	354.61
301.055	497.61
301.44	600.61
301.825	621.61
302.211	633.61
302.596	539.61
302.981	430.61
303.366	367.61
303.75	466.61
304.135	621.61
304.52	707.61
304.905	667.61
305.29	498.61
305.675	308.61
306.059	285.61
306.444	320.61
306.829	354.61
307.213	353.61
307.598	362.61
307.982	359.61
308.367	382.61
308.751	402.61
309.135	397.61
309.52	375.61
309.904	332.61
310.288	370.61
310.673	401.61
311.057	401.61
311.441	401.61
311.825	422.61
312.209	387.61
312.593	340.61
312.977	332.61
313.361	360.61
313.745	377.61
314.129	393.61
314.513	395.61
314.897	384.61
315.281	375.61
315.665	418.61
316.048	455.61
316.432	486.61
316.816	450.61
317.199	444.61
317.583	559.61
317.966	630.61
318.35	570.61
318.733	485.61
319.117	469.61
319.5	531.61
319.884	571.61
320.267	659.61
320.65	738.61
321.033	777.61
321.417	730.61
321.8	720.61
322.183	539.61
322.566	471.61
322.949	496.61
323.332	542.61
323.715	549.61
324.098	573.61
324.481	697.61
324.864	723.61
325.246	664.61
325.629	575.61
326.012	539.61
326.395	574.61
326.777	620.61
327.16	625.61
327.543	609.61
327.925	520.61
328.308	453.61
328.69	435.61
329.073	452.61
329.455	547.61
329.837	627.61
330.22	609.61
330.602	558.61
330.984	565.61
331.366	602.61
331.748	560.61
332.131	581.61
332.513	607.61
332.895	632.61
333.277	555.61
333.659	534.61
334.041	605.61
334.423	590.61
334.804	507.61
335.186	431.61
335.568	434.61
335.95	430.61
336.332	441.61
336.713	538.61
337.095	640.61
337.476	646.61
337.858	584.61
338.239	496.61
338.621	465.61
339.002	421.61
339.384	417.61
339.765	446.61
340.146	469.61
340.528	523.61
340.909	620.61
341.29	636.61
341.671	571.61
342.053	518.61
342.434	504.61
342.815	504.61
343.196	465.61
343.577	434.61
343.958	491.61
344.338	521.61
344.719	521.61
345.1	483.61
345.481	496.61
345.862	482.61
346.242	464.61
346.623	414.61
347.004	370.61
347.384	413.61
347.765	466.61
348.145	471.61
348.526	472.61
348.906	539.61
349.287	571.61
349.667	545.61
350.047	486.61
350.428	499.61
350.808	556.61
351.188	512.61
351.568	465.61
351.948	464.61
352.328	490.61
352.708	488.61
353.088	494.61
353.468	507.61
353.848	584.61
354.228	666.61
354.608	643.61
354.988	554.61
355.368	468.61
355.747	415.61
356.127	457.61
356.507	592.61
356.886	759.61
357.266	792.61
357.645	659.61
358.025	535.61
358.404	480.61
358.784	540.61
359.163	592.61
359.542	606.61
359.922	553.61
360.301	604.61
360.68	677.61
361.059	823.61
361.439	1046.61
361.818	1074.61
362.197	859.61
362.576	697.61
362.955	665.61
363.334	636.61
363.713	623.61
364.091	629.61
364.47	595.61
364.849	525.61
365.228	500.61
365.606	493.61
365.985	514.61
366.364	467.61
366.742	465.61
367.121	514.61
367.499	613.61
367.878	803.61
368.256	922.61
368.635	888.61
369.013	677.61
369.391	565.61
369.77	527.61
370.148	680.61
370.526	840.61
370.904	826.61
371.282	708.61
371.66	652.61
372.038	547.61
372.416	483.61
372.794	458.61
373.172	476.61
373.55	509.61
373.928	523.61
374.306	513.61
374.683	557.61
375.061	704.61
375.439	974.61
375.816	1154.61
376.194	1208.61
376.572	1266.61
376.949	1229.61
377.327	1199.61
377.704	1163.61
378.081	1077.61
378.459	892.61
378.836	756.61
379.213	737.61
379.591	783.61
379.968	745.61
380.345	849.61
380.722	996.61
381.099	1238.61
381.476	1334.61
381.853	1288.61
382.23	1064.61
382.607	1024.61
382.984	1248.61
383.361	1407.61
383.738	1485.61
384.114	1437.61
384.491	1363.61
384.868	1294.61
385.244	1071.61
385.621	1025.61
385.997	1201.61
386.374	1526.61
386.75	1767.61
387.127	1617.61
387.503	1434.61
387.88	1363.61
388.256	1179.61
388.632	938.61
389.008	740.61
389.385	669.61
389.761	658.61
390.137	637.61
390.513	585.61
390.889	546.61
391.265	499.61
391.641	525.61
392.017	591.61
392.393	698.61
392.768	1044.61
393.144	1412.61
393.52	1486.61
393.896	1146.61
394.271	889.61
394.647	896.61
395.022	1023.61
395.398	984.61
395.773	952.61
396.149	1055.61
396.524	1310.61
396.9	1286.61
397.275	1054.61
397.65	1056.61
398.026	1070.61
398.401	1046.61
398.776	933.61
399.151	888.61
399.526	906.61
399.901	987.61
400.276	1437.61
400.651	2081.61
401.026	2383.61
401.401	2194.61
401.776	1725.61
402.151	1247.61
402.525	895.61
402.9	829.61
403.275	898.61
403.649	1021.61
404.024	1302.61
404.399	1425.61
404.773	1346.61
405.148	955.61
405.522	768.61
405.896	811.61
406.271	1111.61
406.645	1801.61
407.019	2486.61
407.393	2624.61
407.768	2091.61
408.142	1400.61
408.516	1064.61
408.89	902.61
409.264	841.61
409.638	1057.61
410.012	1276.61
410.386	1401.61
410.76	1190.61
411.133	1081.61
411.507	1083.61
411.881	1027.61
412.255	1003.61
412.628	998.61
413.002	991.61
413.375	1240.61
413.749	1333.61
414.122	1208.61
414.496	1049.61
414.869	874.61
415.243	795.61
415.616	748.61
415.989	715.61
416.363	775.61
416.736	989.61
417.109	1087.61
417.482	955.61
417.855	807.61
418.228	761.61
418.601	623.61
418.974	565.61
419.347	560.61
419.72	616.61
420.093	717.61
420.465	784.61
420.838	746.61
421.211	734.61
421.583	805.61
421.956	887.61
422.329	931.61
422.701	931.61
423.074	807.61
423.446	887.61
423.818	1028.61
424.191	1175.61
424.563	1175.61
424.935	927.61
425.308	985.61
425.68	1174.61
426.052	1318.61
426.424	1655.61
426.796	1983.61
427.168	2051.61
427.54	1779.61
427.912	1492.61
428.284	1218.61
428.656	1359.61
429.028	2039.61
429.399	2444.61
429.771	2606.61
430.143	2328.61
430.514	2001.61
430.886	1447.61
431.258	1089.61
431.629	813.61
432.001	714.61
432.372	669.61
432.743	751.61
433.115	777.61
433.486	735.61
433.857	682.61
434.229	734.61
434.6	750.61
434.971	759.61
435.342	724.61
435.713	698.61
436.084	804.61
436.455	777.61
436.826	765.61
437.197	735.61
437.568	706.61
437.939	674.61
438.309	702.61
438.68	642.61
439.051	617.61
439.421	590.61
439.792	560.61
440.163	619.61
440.533	724.61
440.903	774.61
441.274	735.61
441.644	755.61
442.015	746.61
442.385	761.61
442.755	716.61
443.125	705.61
443.496	704.61
443.866	727.61
444.236	683.61
444.606	639.61
444.976	643.61
445.346	653.61
445.716	695.61
446.085	728.61
446.455	746.61
446.825	702.61
447.195	668.61
447.565	666.61
447.934	780.61
448.304	895.61
448.673	893.61
449.043	813.61
449.412	755.61
449.782	674.61
450.151	633.61
450.521	639.61
450.89	665.61
451.259	670.61
451.628	607.61
451.998	560.61
452.367	557.61
452.736	532.61
453.105	552.61
453.474	600.61
453.843	659.61
454.212	673.61
454.581	690.61
454.95	657.61
455.318	655.61
455.687	620.61
456.056	586.61
456.424	567.61
456.793	600.61
457.162	573.61
457.53	520.61
457.899	515.61
458.267	532.61
458.636	612.61
459.004	671.61
459.372	725.61
459.741	676.61
460.109	712.61
460.477	625.61
460.845	715.61
461.213	703.61
461.581	658.61
461.949	574.61
462.317	539.61
462.685	529.61
463.053	527.61
463.421	531.61
463.789	573.61
464.157	585.61
464.524	589.61
464.892	577.61
465.26	752.61
465.627	1063.61
465.995	1149.61
466.362	926.61
466.73	754.61
467.097	729.61
467.464	898.61
467.832	1133.61
468.199	1168.61
468.566	903.61
468.933	747.61
469.301	717.61
469.668	724.61
470.035	614.61
470.402	556.61
470.769	546.61
471.136	577.61
471.503	591.61
471.869	584.61
472.236	595.61
472.603	598.61
472.97	548.61
473.336	518.61
473.703	488.61
474.07	499.61
474.436	532.61
474.803	546.61
475.169	659.61
475.536	761.61
475.902	747.61
476.268	634.61
476.635	613.61
477.001	595.61
477.367	540.61
477.733	507.61
478.099	501.61
478.465	482.61
478.831	471.61
479.197	481.61
479.563	540.61
479.929	587.61
480.295	600.61
480.661	592.61
481.026	624.61
481.392	634.61
481.758	636.61
482.123	623.61
482.489	592.61
482.855	585.61
483.22	644.61
483.585	817.61
483.951	1320.61
484.316	1579.61
484.682	1539.61
485.047	1077.61
485.412	987.61
485.777	841.61
486.142	777.61
486.507	682.61
486.873	655.61
487.238	628.61
487.602	667.61
487.967	842.61
488.332	1194.61
488.697	1396.61
489.062	1325.61
489.427	1033.61
489.791	915.61
490.156	859.61
490.521	817.61
490.885	745.61
491.25	734.61
491.614	740.61
491.979	727.61
492.343	742.61
492.707	760.61
493.072	758.61
493.436	762.61
493.8	705.61
494.164	678.61
494.528	653.61
494.892	674.61
495.256	712.61
495.62	729.61
495.984	705.61
496.348	709.61
496.712	696.61
497.076	740.61
497.44	867.61
497.803	1179.61
498.167	1387.61
498.531	1369.61
498.894	1156.61
499.258	1030.61
499.621	1000.61
499.985	1212.61
500.348	1566.61
500.711	1751.61
501.075	1789.61
501.438	1679.61
501.801	1581.61
502.164	1173.61
502.527	1000.61
502.891	886.61
503.254	788.61
503.617	793.61
503.98	778.61
504.342	855.61
504.705	1355.61
505.068	2219.61
505.431	2460.61
505.794	2096.61
506.156	1609.61
506.519	1721.61
506.882	1848.61
507.244	1783.61
507.607	1344.61
507.969	1106.61
508.331	964.61
508.694	855.61
509.056	775.61
509.418	731.61
509.781	697.61
510.143	710.61
510.505	733.61
510.867	733.61
511.229	712.61
511.591	683.61
511.953	685.61
512.315	677.61
512.677	723.61
513.039	702.61
513.401	690.61
513.762	667.61
514.124	653.61
514.486	665.61
514.847	676.61
515.209	659.61
515.57	663.61
515.932	622.61
516.293	607.61
516.654	578.61
517.016	570.61
517.377	569.61
517.738	584.61
518.1	612.61
518.461	608.61
518.822	636.61
519.183	684.61
519.544	708.61
519.905	759.61
520.266	846.61
520.627	909.61
520.987	905.61
521.348	907.61
521.709	1056.61
522.07	1463.61
522.43	1691.61
522.791	1596.61
523.151	1195.61
523.512	1008.61
523.872	984.61
524.233	933.61
524.593	855.61
524.953	779.61
525.314	797.61
525.674	805.61
526.034	786.61
526.394	721.61
526.754	727.61
527.114	707.61
527.474	694.61
527.834	699.61
528.194	625.61
528.554	614.61
528.914	602.61
529.274	586.61
529.634	574.61
529.993	565.61
530.353	568.61
530.712	543.61
531.072	544.61
531.431	558.61
531.791	562.61
532.15	575.61
532.51	553.61
532.869	524.61
533.228	552.61
533.587	565.61
533.947	563.61
534.306	592.61
534.665	642.61
535.024	714.61
535.383	708.61
535.742	655.61
536.101	602.61
536.46	605.61
536.818	597.61
537.177	620.61
537.536	591.61
537.895	566.61
538.253	547.61
538.612	573.61
538.97	564.61
539.329	573.61
539.687	533.61
540.046	547.61
540.404	519.61
540.762	529.61
541.12	519.61
541.479	518.61
541.837	519.61
542.195	539.61
542.553	533.61
542.911	533.61
543.269	583.61
543.627	602.61
543.985	599.61
544.343	553.61
544.7	517.61
545.058	517.61
545.416	510.61
545.774	506.61
546.131	480.61
546.489	459.61
546.846	462.61
547.204	478.61
547.561	511.61
547.918	524.61
548.276	531.61
548.633	572.61
548.99	641.61
549.347	653.61
549.705	636.61
550.062	623.61
550.419	610.61
550.776	691.61
551.133	963.61
551.49	1062.61
551.846	950.61
552.203	746.61
552.56	629.61
552.917	595.61
553.273	582.61
553.63	550.61
553.987	518.61
554.343	476.61
554.7	445.61
555.056	448.61
555.412	437.61
555.769	428.61
556.125	429.61
556.481	429.61
556.837	421.61
557.194	424.61
557.55	403.61
557.906	402.61
558.262	390.61
558.618	401.61
558.974	410.61
559.329	409.61
559.685	404.61
560.041	410.61
560.397	420.61
560.752	415.61
561.108	407.61
561.464	415.61
561.819	403.61
562.175	412.61
562.53	422.61
562.886	454.61
563.241	446.61
563.596	437.61
563.951	440.61
564.307	479.61
564.662	526.61
565.017	550.61
565.372	481.61
565.727	485.61
566.082	462.61
566.437	444.61
566.792	415.61
567.147	439.61
567.501	448.61
567.856	437.61
568.211	370.61
568.565	369.61
568.92	341.61
569.275	365.61
569.629	341.61
569.984	349.61
570.338	328.61
570.692	318.61
571.047	333.61
571.401	312.61
571.755	325.61
572.109	325.61
572.463	332.61
572.817	368.61
573.171	424.61
573.525	447.61
573.879	458.61
574.233	408.61
574.587	387.61
574.941	391.61
575.295	370.61
575.648	357.61
576.002	343.61
576.355	323.61
576.709	312.61
577.062	314.61
577.416	308.61
577.769	301.61
578.123	283.61
578.476	291.61
578.829	311.61
579.182	320.61
579.536	349.61
579.889	382.61
580.242	433.61
580.595	441.61
580.948	397.61
581.301	340.61
581.654	336.61
582.006	325.61
582.359	314.61
582.712	303.61
583.065	314.61
583.417	304.61
583.77	315.61
584.122	307.61
584.475	311.61
584.827	328.61
585.18	317.61
585.532	317.61
585.884	325.61
586.237	322.61
586.589	316.61
586.941	317.61
587.293	304.61
587.645	296.61
587.997	310.61
588.349	411.61
588.701	603.61
589.053	783.61
589.405	853.61
589.756	749.61
590.108	643.61
590.46	488.61
590.811	431.61
591.163	392.61
591.514	345.61
591.866	325.61
592.217	297.61
592.569	287.61
592.92	262.61
593.271	262.61
593.623	266.61
593.974	255.61
594.325	299.61
594.676	297.61
595.027	294.61
595.378	288.61
595.729	286.61
596.08	293.61
596.431	304.61
596.781	302.61
597.132	296.61
597.483	277.61
597.833	274.61
598.184	260.61
598.535	268.61
598.885	269.61
599.236	259.61
599.586	256.61
599.936	232.61
600.287	239.61
600.637	236.61
600.987	248.61
601.337	263.61
601.687	250.61
602.037	250.61
602.387	244.61
602.737	240.61
603.087	241.61
603.437	225.61
603.787	233.61
604.137	238.61
604.487	246.61
604.836	231.61
605.186	226.61
605.535	204.61
605.885	211.61
606.234	207.61
606.584	202.61
606.933	198.61
607.283	193.61
607.632	205.61
607.981	206.61
608.33	207.61
608.679	185.61
609.028	194.61
609.377	192.61
609.726	191.61
610.075	195.61
610.424	191.61
610.773	191.61
611.122	203.61
611.471	196.61
611.819	194.61
612.168	207.61
612.517	190.61
612.865	205.61
613.214	201.61
613.562	197.61
613.91	203.61
614.259	188.61
614.607	210.61
614.955	199.61
615.304	212.61
615.652	200.61
616	203.61
616.348	193.61
616.696	182.61
617.044	196.61
617.392	185.61
617.739	185.61
618.087	194.61
618.435	175.61
618.783	173.61
619.13	178.61
619.478	168.61
619.826	180.61
620.173	172.61
620.521	166.61
620.868	169.61
621.215	162.61
621.563	164.61
621.91	156.61
622.257	162.61
622.604	164.61
622.951	152.61
623.298	159.61
623.645	160.61
623.992	169.61
624.339	160.61
624.686	172.61
625.033	169.61
625.38	193.61
625.726	183.61
626.073	177.61
626.42	186.61
626.766	165.61
627.113	161.61
627.459	171.61
627.806	164.61
628.152	176.61
628.498	184.61
628.844	207.61
629.191	207.61
629.537	191.61
629.883	182.61
630.229	188.61
630.575	183.61
630.921	173.61
631.267	171.61
631.613	160.61
631.959	183.61
632.304	164.61
632.65	171.61
632.996	167.61
633.341	171.61
633.687	160.61
634.032	167.61
634.378	166.61
634.723	164.61
635.069	147.61
635.414	161.61
635.759	158.61
636.104	164.61
636.45	172.61
636.795	155.61
637.14	167.61
637.485	168.61
637.83	170.61
638.175	165.61
638.519	162.61
638.864	175.61
639.209	159.61
639.554	163.61
639.898	164.61
640.243	173.61
640.587	182.61
640.932	169.61
641.276	158.61
641.621	154.61
641.965	145.61
642.309	152.61
642.654	150.61
642.998	155.61
643.342	155.61
643.686	154.61
644.03	157.61
644.374	174.61
644.718	179.61
645.062	165.61
645.406	171.61
645.75	149.61
646.093	160.61
646.437	155.61
646.781	155.61
647.124	151.61
647.468	143.61
647.811	153.61
648.155	142.61
648.498	152.61
648.842	147.61
649.185	151.61
649.528	137.61
649.871	147.61
650.214	157.61
650.558	140.61
650.901	155.61
651.244	144.61
651.586	134.61
651.929	139.61
652.272	146.61
652.615	140.61
652.958	153.61
653.3	149.61
653.643	175.61
653.986	142.61
654.328	149.61
654.671	143.61
655.013	154.61
655.355	142.61
655.698	150.61
656.04	150.61
656.382	155.61
656.724	152.61
657.066	157.61
657.409	160.61
657.751	161.61
658.092	162.61
658.434	150.61
658.776	142.61
659.118	138.61
659.46	153.61
659.802	138.61
660.143	142.61
660.485	136.61
660.826	160.61
661.168	139.61
661.509	145.61
661.851	139.61
662.192	135.61
662.533	141.61
662.875	137.61
663.216	139.61
663.557	129.61
663.898	127.61
664.239	114.61
664.58	119.61
664.921	122.61
665.262	106.61
665.603	126.61
665.943	119.61
666.284	118.61
666.625	110.61
666.966	120.61
667.306	126.61
667.647	129.61
667.987	117.61
668.327	113.61
668.668	111.61
669.008	115.61
669.348	113.61
669.689	110.61
670.029	105.61
670.369	104.61
670.709	112.61
671.049	115.61
671.389	105.61
671.729	107.61
672.069	100.61
672.409	100.61
672.748	116.61
673.088	104.61
673.428	96.61
673.767	96.61
674.107	97.61
674.446	95.61
674.786	97.61
675.125	108.61
675.464	92.61
675.804	96.61
676.143	92.61
676.482	98.61
676.821	96.61
677.16	101.61
677.499	87.61
677.838	96.61
678.177	93.61
678.516	98.61
678.855	93.61
679.194	88.61
679.532	93.61
679.871	84.61
680.21	95.61
680.548	89.61
680.887	95.61
681.225	92.61
681.564	93.61
681.902	85.61
682.24	98.61
682.578	94.61
682.917	90.61
683.255	78.61
683.593	89.61
683.931	85.61
684.269	88.61
684.607	87.61
684.945	88.61
685.282	87.61
685.62	87.61
685.958	86.61
686.296	86.61
686.633	83.61
686.971	72.61
687.308	83.61
687.646	74.61
687.983	73.61
688.321	80.61
688.658	70.61
688.995	71.61
689.332	77.61
689.669	75.61
690.006	77.61
690.344	75.61
690.681	80.61
691.017	75.61
691.354	75.61
691.691	78.61
692.028	76.61
692.365	81.61
692.701	79.61
693.038	74.61
693.375	78.61
693.711	75.61
694.047	73.61
694.384	73.61
694.72	72.61
695.057	71.61
695.393	72.61
695.729	73.61
696.065	77.61
696.401	76.61
696.737	72.61
697.073	75.61
697.409	82.61
697.745	75.61
698.081	82.61
698.417	75.61
698.752	81.61
699.088	72.61
699.424	79.61
699.759	84.61
700.095	78.61
700.43	62.61
700.766	65.61
701.101	63.61
701.436	81.61
701.771	74.61
702.107	68.61
702.442	68.61
702.777	71.61
703.112	73.61
703.447	71.61
703.782	62.61
704.117	66.61
704.451	67.61
704.786	76.61
705.121	69.61
705.456	65.61
705.79	64.61
706.125	73.61
706.459	77.61
706.794	60.61
707.128	72.61
707.462	73.61
707.797	67.61
708.131	65.61
708.465	61.61
708.799	71.61
709.133	69.61
709.467	63.61
709.801	72.61
710.135	68.61
710.469	64.61
710.803	58.61
711.137	75.61
711.47	66.61
711.804	63.61
712.138	60.61
712.471	62.61
712.805	57.61
713.138	62.61
713.471	58.61
713.805	64.61
714.138	61.61
714.471	61.61
714.804	59.61
715.138	60.61
715.471	70.61
715.804	59.61
716.137	51.61
716.469	64.61
716.802	57.61
717.135	54.61
717.468	55.61
717.801	56.61
718.133	54.61
718.466	54.61
718.798	53.61
719.131	54.61
719.463	60.61
719.795	56.61
720.128	55.61
720.46	60.61
720.792	55.61
721.124	58.61
721.456	55.61
721.789	52.61
722.121	45.61
722.452	53.61
722.784	53.61
723.116	59.61
723.448	55.61
723.78	54.61
724.111	49.61
724.443	50.61
724.774	58.61
725.106	54.61
725.437	53.61
725.769	52.61
726.1	49.61
726.431	51.61
726.763	50.61
727.094	51.61
727.425	49.61
727.756	53.61
728.087	51.61
728.418	52.61
728.749	53.61
729.08	56.61
729.41	52.61
729.741	52.61
730.072	55.61
730.403	56.61
730.733	54.61
731.064	46.61
731.394	44.61
731.725	46.61
732.055	44.61
732.385	40.61
732.715	40.61
733.046	45.61
733.376	48.61
733.706	42.61
734.036	41.61
734.366	45.61
734.696	42.61
735.026	47.61
735.355	47.61
735.685	42.61
736.015	36.61
736.345	47.61
736.674	37.61
737.004	47.61
737.333	39.61
737.663	42.61
737.992	47.61
738.321	42.61
738.651	42.61
738.98	35.61
739.309	49.61
739.638	40.61
739.967	48.61
740.296	43.61
740.625	41.61
740.954	46.61
741.283	43.61
741.612	41.61
741.94	48.61
742.269	43.61
742.598	43.61
742.926	42.61
743.255	44.61
743.583	43.61
743.912	46.61
744.24	43.61
744.568	51.61
744.896	44.61
745.225	43.61
745.553	43.61
745.881	37.61
746.209	42.61
746.537	45.61
746.865	43.61
747.192	51.61
747.52	44.61
747.848	49.61
748.176	42.61
748.503	45.61
748.831	36.61
749.158	39.61
749.486	40.61
749.813	48.61
750.141	40.61
750.468	41.61
750.795	43.61
751.122	43.61
751.449	41.61
751.777	43.61
752.104	44.61
752.431	44.61
752.757	44.61
753.084	41.61
753.411	37.61
753.738	44.61
754.065	46.61
754.391	47.61
754.718	38.61
755.044	37.61
755.371	37.61
755.697	34.61
756.024	42.61
756.35	39.61
756.676	39.61
757.002	43.61
757.328	44.61
757.654	37.61
757.981	36.61
758.306	40.61
758.632	37.61
758.958	43.61
759.284	23.61
759.61	34.61
759.935	33.61
760.261	29.61
760.587	37.61
760.912	37.61
761.238	38.61
761.563	41.61
761.888	40.61
762.214	35.61
762.539	35.61
762.864	38.61
763.189	36.61
763.514	42.61
763.839	40.61
764.164	40.61
764.489	38.61
764.814	40.61
765.139	38.61
765.464	34.61
765.788	36.61
766.113	54.61
766.438	46.61
766.762	60.61
767.087	42.61
767.411	48.61
767.735	37.61
768.06	43.61
768.384	38.61
768.708	34.61
769.032	39.61
769.356	42.61
769.68	41.61
770.004	51.61
770.328	45.61
770.652	37.61
770.976	37.61
771.3	35.61
771.623	30.61
771.947	35.61
772.271	36.61
772.594	33.61
772.917	33.61
773.241	39.61
773.564	34.61
773.888	29.61
774.211	30.61
774.534	29.61
774.857	32.61
775.18	27.61
775.503	37.61
775.826	28.61
776.149	30.61
776.472	37.61
776.795	33.61
777.117	36.61
777.44	39.61
777.763	36.61
778.085	41.61
778.408	40.61
778.73	27.61
779.053	31.61
779.375	33.61
779.697	36.61
780.019	32.61
780.342	32.61
780.664	27.61
780.986	33.61
781.308	27.61
781.63	37.61
781.952	31.61
782.273	29.61
782.595	25.61
782.917	26.61
783.238	28.61
783.56	25.61
783.882	33.61
784.203	29.61
784.525	29.61
784.846	32.61
785.167	26.61
785.488	30.61
785.81	26.61
786.131	30.61
786.452	30.61
786.773	37.61
787.094	35.61
787.415	33.61
787.736	30.61
788.057	27.61
788.377	35.61
788.698	25.61
789.019	34.61
789.339	38.61
789.66	26.61
789.98	31.61
790.301	30.61
790.621	40.61
790.941	27.61
791.261	29.61
791.582	23.61
791.902	42.61
792.222	27.61
792.542	27.61
792.862	30.61
793.182	23.61
793.502	25.61
793.821	31.61
794.141	29.61
794.461	33.61
794.78	26.61
795.1	26.61
795.419	31.61
795.739	38.61
796.058	30.61
796.378	32.61
796.697	28.61
797.016	25.61
797.335	23.61
797.654	31.61
797.973	27.61
798.292	33.61
798.611	25.61
798.93	33.61
799.249	28.61
799.568	24.61
799.886	32.61
800.205	26.61
800.524	32.61
800.842	30.61
801.161	25.61
801.479	25.61
801.797	30.61
802.116	25.61
802.434	27.61
802.752	33.61
803.07	27.61
803.388	27.61
803.706	28.61
804.024	30.61
804.342	26.61
804.66	23.61
804.978	21.61
805.295	22.61
805.613	23.61
805.931	32.61
806.248	29.61
806.566	31.61
806.883	22.61
807.201	30.61
807.518	24.61
807.835	36.61
808.152	23.61
808.469	30.61
808.787	22.61
809.104	25.61
809.421	28.61
809.737	25.61
810.054	25.61
810.371	22.61
810.688	27.61
811.005	25.61
811.321	23.61
811.638	24.61
811.954	26.61
812.271	21.61
812.587	25.61
812.903	26.61
813.22	23.61
813.536	28.61
813.852	26.61
814.168	16.61
814.484	24.61
814.8	29.61
815.116	25.61
815.432	18.61
815.748	23.61
816.064	28.61
816.379	17.61
816.695	27.61
817.01	21.61
817.326	23.61
817.641	26.61
817.957	23.61
818.272	24.61
818.588	19.61
818.903	27.61
819.218	23.61
819.533	23.61
819.848	27.61
820.163	23.61
820.478	28.61
820.793	23.61
821.108	21.61
821.422	29.61
821.737	30.61
822.052	26.61
822.366	22.61
822.681	23.61
822.995	24.61
823.31	30.61
823.624	16.61
823.939	27.61
824.253	25.61
824.567	23.61
824.881	24.61
825.195	22.61
825.509	27.61
825.823	16.61
826.137	21.61
826.451	27.61
826.765	15.61
827.078	18.61
827.392	25.61
827.706	23.61
828.019	21.61
828.333	27.61
828.646	26.61
828.959	19.61
829.273	21.61
829.586	28.61
829.899	19.61
830.212	25.61
830.525	21.61
830.838	23.61
831.151	25.61
831.464	22.61
831.777	23.61
832.09	21.61
832.403	25.61
832.715	22.61
833.028	18.61
833.34	22.61
833.653	27.61
833.965	24.61
834.278	22.61
834.59	19.61
834.902	25.61
835.214	20.61
835.526	22.61
835.839	21.61
836.151	21.61
836.462	22.61
836.774	24.61
837.086	21.61
837.398	24.61
837.71	15.61
838.021	19.61
838.333	20.61
838.644	20.61
838.956	20.61
839.267	23.61
839.579	22.61
839.89	17.61
840.201	22.61
840.512	22.61
840.824	22.61
841.135	22.61
841.446	26.61
841.757	19.61
842.068	23.61
842.378	17.61
842.689	22.61
843	22.61
843.31	22.61
843.621	22.61
843.932	22.61
844.242	20.61
844.553	21.61
844.863	26.61
845.173	26.61
845.483	26.61
845.794	25.61
846.104	24.61
846.414	16.61
846.724	19.61
847.034	26.61
847.344	18.61
847.653	25.61
847.963	21.61
848.273	28.61
848.582	16.61
848.892	18.61
849.202	21.61
849.511	18.61
849.82	20.61
850.13	19.61
850.439	23.61
850.748	20.61
851.057	21.61
851.367	17.61
851.676	22.61
851.985	23.61
852.294	24.61
852.602	26.61
852.911	19.61
853.22	19.61
853.529	22.61
853.837	23.61
854.146	11.61
854.454	22.61
854.763	24.61
855.071	30.61
855.38	29.61
855.688	23.61
855.996	23.61
856.304	24.61
856.612	23.61
856.92	21.61
857.228	24.61
857.536	24.61
857.844	21.61
858.152	17.61
858.46	19.61
858.767	20.61
859.075	22.61
859.382	20.61
859.69	21.61
859.997	26.61
860.305	18.61
860.612	13.61
860.919	16.61
861.226	26.61
861.534	18.61
861.841	19.61
862.148	16.61
862.455	23.61
862.761	18.61
863.068	24.61
863.375	24.61
863.682	22.61
863.988	21.61
864.295	22.61
864.602	17.61
864.908	23.61
865.214	21.61
865.521	19.61
865.827	19.61
866.133	17.61
866.439	24.61
866.746	19.61
867.052	23.61
867.358	17.61
867.663	28.61
867.969	25.61
868.275	16.61
868.581	21.61
868.887	16.61
869.192	17.61
869.498	21.61
869.803	18.61
870.109	21.61
870.414	16.61
870.719	20.61
871.025	18.61
871.33	23.61
871.635	16.61
871.94	23.61
872.245	17.61
872.55	23.61
872.855	18.61
873.16	18.61
873.465	20.61
873.769	19.61
874.074	24.61
874.378	21.61
874.683	24.61
874.987	21.61
875.292	21.61
875.596	19.61
875.901	23.61
876.205	20.61
876.509	21.61
876.813	20.61
877.117	17.61
877.421	20.61
877.725	18.61
878.029	20.61
878.333	21.61
878.636	22.61
878.94	12.61
879.244	19.61
879.547	20.61
879.851	19.61
880.154	15.61
880.458	23.61
880.761	23.61
881.064	21.61
881.367	15.61
881.67	22.61
881.973	17.61
882.276	14.61
882.579	18.61
882.882	23.61
883.185	19.61
883.488	19.61
883.791	21.61
884.093	20.61
884.396	23.61
884.698	20.61
885.001	22.61
885.303	22.61
885.606	19.61
885.908	18.61
886.21	22.61
886.512	26.61
886.814	17.61
887.116	15.61
887.418	17.61
887.72	20.61
888.022	21.61
888.324	23.61
888.626	25.61
888.927	22.61
889.229	17.61
889.53	17.61
889.832	23.61
890.133	16.61
890.435	20.61
890.736	15.61
891.037	14.61
891.338	21.61
891.639	17.61
891.94	20.61
892.241	17.61
892.542	18.61
892.843	18.61
893.144	29.61
893.445	22.61
893.745	19.61
894.046	23.61
894.347	24.61
894.647	24.61
894.947	23.61
895.248	14.61
895.548	21.61
895.848	20.61
896.149	17.61
896.449	19.61
896.749	22.61
897.049	19.61
897.349	23.61
897.649	23.61
897.948	17.61
898.248	14.61
898.548	20.61
898.847	21.61
899.147	21.61
899.446	22.61
899.746	21.61
900.045	17.61
900.345	18.61
900.644	21.61
900.943	16.61
901.242	19.61
901.541	17.61
901.84	15.61
902.139	20.61
902.438	16.61
902.737	19.61
903.036	20.61
903.334	21.61
903.633	21.61
903.932	18.61
